"λ,n (nm)",n,"λ,k (nm)",k,α (cm⁻¹),Reference,Details
190.77,0.783,190.77,2.3,1515052.2835365147,'Sopra SA database',-
191.51,0.7844,191.51,2.3135,1518056.4156607983,,
192.25,0.7858,192.25,2.3281,1521756.4331490034,,
193,0.7873,193,2.3437,1526000.1455374921,,
193.75,0.789,193.75,2.36,1530665.0141877495,,
194.51,0.7909,194.51,2.377,1535667.2124997047,,
195.28,0.7929,195.28,2.3944,1540808.9819244985,,
196.05,0.7953,196.05,2.4121,1546102.6553887154,,
196.83,0.798,196.83,2.43,1551403.779550515,,
197.61,0.8011,197.61,2.4475,1556408.6877508261,,
198.4,0.8046,198.4,2.465,1561295.54256025,,
199.2,0.8086,199.2,2.4825,1566065.0125575627,,
200,0.813,200,2.5,1570796.3267948967,,
200.81,0.8187,200.81,2.5175,1575411.4845699526,,
201.63,0.8246,201.63,2.535,1579911.1990973814,,
202.45,0.8304,202.45,2.5525,1584374.4624920622,,
203.28,0.836,203.28,2.57,1588723.5576005052,,
204.12,0.8389,204.12,2.5865,1592343.6015108759,,
204.96,0.8419,204.96,2.6034,1596179.218258327,,
205.81,0.8454,205.81,2.6211,1600394.2479615582,,
206.67,0.85,206.67,2.64,1605226.6135340505,,
207.53,0.8563,207.53,2.6605,1610987.761745414,,
208.4,0.8621,208.4,2.6806,1616382.5848776966,,
209.28,0.8677,209.28,2.7004,1621474.9238826218,,
210.17,0.873,210.17,2.72,1626327.642910832,,
211.06,0.8783,211.06,2.7396,1631139.4359470475,,
211.97,0.8836,211.97,2.7594,1635875.0329415812,,
212.88,0.8892,212.88,2.7795,1640747.2342451764,,
213.79,0.895,213.79,2.8,1645813.0745219928,,
214.72,0.9016,214.72,2.8216,1651325.9745471238,,
215.65,0.9087,215.65,2.8438,1657140.9577145658,,
216.59,0.9161,216.59,2.8666,1663177.3398181822,,
217.54,0.924,217.54,2.89,1669431.4183827348,,
218.5,0.9322,218.5,2.9145,1676187.0551739044,,
219.47,0.9408,219.47,2.9394,1683035.940394922,,
220.44,0.9497,220.44,2.9646,1689995.5690133008,,
221.43,0.959,221.43,2.99,1696854.4522844206,,
222.42,0.9682,222.42,3.0146,1703200.2901738677,,
223.42,0.9779,223.42,3.0394,1709525.8636327668,,
224.43,0.9885,224.43,3.0645,1715886.5903713265,,
225.45,1,225.45,3.09,1722336.8905908116,,
226.48,1.0136,226.48,3.117,1729485.040840584,,
227.52,1.0282,227.52,3.1444,1736713.0696110665,,
228.57,1.0437,228.57,3.1721,1743963.9596538797,,
229.63,1.06,229.63,3.2,1751181.7256433985,,
230.7,1.0762,230.7,3.2275,1758039.0618918177,,
231.78,1.0931,231.78,3.255,1764756.9397592158,,
232.86,1.111,232.86,3.2825,1771412.502861547,,
233.96,1.13,233.96,3.31,1777854.621881042,,
235.07,1.1506,235.07,3.3375,1784160.5447493827,,
236.19,1.1725,236.19,3.365,1790331.3907158908,,
237.32,1.1956,237.32,3.3925,1796368.292146195,,
238.46,1.22,238.46,3.42,1802272.393739343,,
239.61,1.2456,239.61,3.4483,1808464.412566034,,
240.78,1.2725,240.78,3.4763,1814289.9811735526,,
241.95,1.3006,241.95,3.5036,1819695.6430861254,,
243.14,1.33,243.14,3.53,1824433.999699263,,
244.33,1.3606,244.33,3.554,1827891.8333169278,,
245.54,1.3925,245.54,3.5769,1830604.0176957452,,
246.77,1.4256,246.77,3.5988,1832631.7853448875,,
248,1.46,248,3.62,1834284.7429024274,,
249.25,1.4968,249.25,3.6413,1835824.4861811858,,
250.51,1.5344,250.51,3.6619,1836924.3763810568,,
251.78,1.5723,251.78,3.6815,1837441.1556423584,,
253.06,1.61,253.06,3.7,1837333.8841827607,,
254.36,1.6452,254.36,3.7165,1836095.156009823,,
255.67,1.68,255.67,3.7319,1834256.6001379513,,
256.99,1.7148,256.99,3.7463,1831876.50229868,,
258.33,1.75,258.33,3.76,1829038.5750780199,,
259.69,1.7866,259.69,3.7738,1826137.6804832167,,
261.05,1.8238,261.05,3.7869,1822930.0470988986,,
262.43,1.8616,262.43,3.799,1819138.130699634,,
263.83,1.9,263.83,3.81,1814724.3316040044,,
265.24,1.9398,265.24,3.8186,1809151.8182774822,,
266.67,1.98,266.67,3.8263,1803078.8570788803,,
268.11,2.0202,268.11,3.8333,1796675.5613749214,,
269.57,2.06,269.57,3.84,1790068.0030841422,,
271.04,2.0969,271.04,3.8483,1784207.6459282176,,
272.53,2.1338,272.53,3.8563,1778141.672482049,,
274.03,2.1713,274.03,3.8636,1771755.9940750322,,
275.56,2.21,275.56,3.87,1764837.2143115837,,
277.09,2.2526,277.09,3.8748,1757269.2214269347,,
278.65,2.2969,278.65,3.8781,1748919.50043231,,
280.23,2.3427,280.23,3.8799,1739865.8725565483,,
281.82,2.39,281.82,3.88,1730094.314942644,,
283.43,2.4397,283.43,3.8794,1720000.6407700304,,
285.06,2.49,285.06,3.8763,1708798.9339942632,,
286.71,2.5403,286.71,3.87,1696203.6300641764,,
288.37,2.59,288.37,3.86,1682081.720408725,,
290.06,2.6377,290.06,3.8417,1664353.0989858522,,
291.76,2.6838,291.76,3.82,1645309.0124366616,,
293.49,2.728,293.49,3.7958,1625248.8867758543,,
295.24,2.77,295.24,3.77,1604634.1016167891,,
297.01,2.8087,297.01,3.7479,1585721.0338223206,,
298.8,2.845,298.8,3.7244,1566338.3773801643,,
300.61,2.8788,300.61,3.6987,1546163.9663128396,,
302.44,2.91,302.44,3.67,1524883.6183936705,,
304.29,2.9399,304.29,3.6313,1499630.6685044682,,
306.17,2.9669,306.17,3.5906,1473717.553252051,,
308.07,2.9904,308.07,3.5496,1447904.344231159,,
310,3.01,310,3.51,1422837.4469806675,,
311.95,3.0225,311.95,3.479,1401455.4693814896,,
313.92,3.0313,313.92,3.4506,1381291.9992962463,,
315.92,3.0369,315.92,3.4245,1362165.6168926624,,
317.95,3.04,317.95,3.4,1343785.5036584744,,
320,3.0416,320,3.3745,1325163.0511923444,,
322.08,3.0419,322.08,3.3506,1307280.221698704,,
324.18,3.0412,324.18,3.329,1290438.885039228,,
326.32,3.04,326.32,3.31,1274659.4365508968,,
328.48,3.0396,328.48,3.2969,1261266.0520725998,,
330.67,3.0394,330.67,3.2863,1248884.4996512702,,
332.89,3.0395,332.89,3.2775,1237233.9117595057,,
335.14,3.04,335.14,3.27,1226115.4117370204,,
337.41,3.042,337.41,3.262,1214886.9607907182,,
339.73,3.0444,339.73,3.2544,1203779.3697162597,,
342.07,3.0471,342.07,3.2471,1192862.9234333811,,
344.44,3.05,344.44,3.24,1182064.8237871248,,
346.85,3.0529,346.85,3.2321,1170989.3747346196,,
349.3,3.0556,349.3,3.2244,1160005.880588025,,
351.77,3.058,351.77,3.217,1149217.2233673553,,
354.29,3.06,354.29,3.21,1138560.2097742793,,
356.83,3.0605,356.83,3.2041,1128377.885420739,,
359.42,3.0606,359.42,3.1988,1118393.698770578,,
362.04,3.0604,362.04,3.1941,1108668.776359646,,
364.71,3.06,364.71,3.19,1099139.6523211803,,
367.41,3.0604,367.41,3.1866,1089899.4746935833,,
370.15,3.0606,370.15,3.1838,1080881.0147777046,,
372.93,3.0605,372.93,3.1816,1072082.2874707088,,
375.76,3.06,375.76,3.18,1063472.9229737644,,
378.63,3.0584,378.63,3.1779,1054714.8713882158,,
381.54,3.0563,381.54,3.1769,1046341.2172972073,,
384.5,3.0534,384.5,3.1774,1038449.5706128695,,
387.5,3.05,387.5,3.18,1031253.1239654754,,
390.55,3.0444,390.55,3.1874,1025580.5836950052,,
393.65,3.0388,393.65,3.1969,1020536.7767571408,,
396.8,3.0338,396.8,3.2079,1015918.8582107557,,
400,3.03,400,3.22,1011592.8344559136,,
403.25,3.0309,403.25,3.2316,1007054.7619928853,,
406.56,3.0331,406.56,3.2438,1002626.7463316185,,
409.92,3.0363,409.92,3.2566,998332.4195628925,,
413.33,3.04,413.33,3.27,994170.079814059,,
416.81,3.0417,416.81,3.2833,989879.4327901315,,
420.34,3.0438,420.34,3.2975,985811.6548710418,,
423.93,3.0464,423.93,3.313,982058.0248006026,,
427.59,3.05,427.59,3.33,978648.1008867384,,
431.3,3.0556,431.3,3.3509,976319.2972792987,,
435.09,3.0625,435.09,3.3731,974226.5903444099,,
438.94,3.0706,438.94,3.3963,972323.4272918409,,
442.86,3.08,442.86,3.42,970441.843948615,,
446.85,3.0898,446.85,3.4421,967991.5920708448,,
450.91,3.1013,450.91,3.4644,965490.549253419,,
455.05,3.1145,455.05,3.487,962947.6833813963,,
459.26,3.13,459.26,3.51,960413.7276575513,,
463.55,3.1484,463.55,3.5337,957950.2500261248,,
467.92,3.1694,467.92,3.5581,955556.5755460628,,
472.38,3.1932,472.38,3.5835,953291.6104948579,,
476.92,3.22,476.92,3.61,951199.3189179866,,
481.55,3.2488,481.55,3.6416,950299.9736112629,,
486.27,3.2813,486.27,3.6731,949216.1947807325,,
491.09,3.3181,491.09,3.703,947550.7622833293,,
496,3.36,496,3.73,945011.3385395103,,
501.01,3.4138,501.01,3.7549,941806.8505590161,,
506.12,3.4713,506.12,3.7731,936816.8214067533,,
511.34,3.5306,511.34,3.7823,929514.2874543496,,
516.67,3.59,516.67,3.78,919365.9574250039,,
522.11,3.6506,522.11,3.7507,902734.7927309753,,
527.66,3.7063,527.66,3.7106,883689.7775393463,,
533.33,3.7538,533.33,3.6627,863008.749727436,,
539.13,3.79,539.13,3.61,841440.8012508415,,
545.05,3.797,545.05,3.5523,818998.5934022216,,
551.11,3.7925,551.11,3.4969,797360.6249451578,,
557.3,3.7792,557.3,3.448,777477.9450620929,,
563.64,3.76,563.64,3.41,760260.517262167,,
570.11,3.7396,570.11,3.4057,750684.7520885975,,
576.74,3.7181,576.74,3.4131,743667.5025812202,,
583.53,3.6976,583.53,3.429,738438.2094603123,,
590.48,3.68,590.48,3.45,734215.8687769128,,
597.59,3.6733,597.59,3.4663,728907.9546269716,,
604.88,3.6713,604.88,3.4838,723758.7942452137,,
612.35,3.6736,612.35,3.5019,718644.1292467443,,
620,3.68,620,3.52,713445.5574603917,,
627.85,3.6913,627.85,3.5379,708108.0289327279,,
635.9,3.7056,635.9,3.5544,702404.5873828942,,
644.16,3.7221,644.16,3.5687,696187.3884044894,,
652.63,3.74,652.63,3.58,689327.900945495,,
661.33,3.7585,661.33,3.586,681399.6797830431,,
670.27,3.7769,670.27,3.5881,672704.945788744,,
679.45,3.7943,679.45,3.5862,663264.6743279839,,
688.89,3.81,688.89,3.58,653044.8518545172,,
698.59,3.8236,698.59,3.5675,641728.7273898331,,
708.57,3.8338,708.57,3.5513,629817.1241059279,,
718.84,3.8395,718.84,3.5319,617427.5829510761,,
729.41,3.84,729.41,3.51,604707.3779685047,,
740.3,3.8346,740.3,3.487,591907.7986258334,,
751.52,3.8219,751.52,3.4625,578974.0559428709,,
763.08,3.8007,763.08,3.4367,565954.3676989067,,
775,3.77,775,3.41,552920.3070318035,,
787.3,3.7248,787.3,3.3748,538663.6294848132,,
800,3.6694,800,3.3425,525038.6722311942,,
813.11,3.6043,813.11,3.3164,512539.65029898484,,
826.67,3.53,826.67,3.3,501639.384849883,,
840.68,3.4427,840.68,3.3041,493892.3864836102,,
855.17,3.3488,855.17,3.3219,488139.51078545477,,
870.18,3.2505,870.18,3.3537,484311.71860277606,,
885.71,3.15,885.71,3.4,482388.8190132344,,
901.82,3.053,901.82,3.4664,483023.96373571927,,
918.52,2.9569,918.52,3.5463,485173.10575384245,,
935.85,2.8623,935.85,3.638,488501.9639369415,,
953.85,2.77,953.85,3.74,492721.3513414406,,
972.55,2.6828,972.55,3.8465,497008.32418006845,,
992,2.5988,992,3.9619,501882.0941232823,,
1012.24,2.5178,1012.24,4.0863,507290.36830648745,,
1033.33,2.44,1033.33,4.22,513196.0166896897,,
1055.32,2.3649,1055.32,4.3654,519816.11530079535,,
1078.26,2.2931,1078.26,4.5194,526704.6478079021,,
1102.22,2.2248,1102.22,4.6812,533701.9299226847,,
1127.27,2.16,1127.27,4.85,540659.269559573,,
1153.49,2.099,1153.49,5.0251,547445.3092286563,,
1180.95,2.0419,1180.95,5.2056,553922.6797926086,,
1209.76,1.9888,1209.76,5.3909,559979.2301361334,,
1240,1.94,1240,5.58,565486.6776461628,,